,atr
748476,0.0
748477,0.0
748478,0.0
748479,0.0
748480,15.4
748481,25.419999999999998
748482,28.536
748483,23.128800000000002
748484,26.00304
748485,25.602432
748486,21.2819456
748487,17.22555648
748488,13.880445184000001
748489,11.2043561472
748490,9.06348491776
748491,7.350787934208
748492,5.9806303473664
748493,4.98450427789312
748494,4.1876034223144964
748495,6.150082737851597
748496,4.920066190281277
748497,3.9360529522250216
748498,3.2488423617800173
748499,5.199073889424014
748500,4.159259111539211
748501,3.427407289231369
748502,3.1419258313850955
748503,4.713540665108076
748504,7.170832532086462
748505,7.136666025669169
748506,6.909332820535335
748507,5.627466256428268
748508,4.601973005142614
748509,18.88157840411409
748510,15.205262723291273
748511,16.464210178633017
748512,24.771368142906415
748513,26.317094514325127
748514,25.753675611460103
748515,21.90294048916808
748516,17.622352391334466
748517,15.797881913067574
748518,14.138305530454058
748519,12.010644424363246
748520,9.908515539490597
748521,8.126812431592478
748522,6.601449945273982
748523,5.381159956219186
748524,4.504927964975349
748525,10.203942371980279
748526,8.263153897584223
748527,6.710523118067378
748528,5.4684184944539025
748529,9.274734795563123
748530,7.619787836450499
748531,16.295830269160398
748532,21.936664215328317
748533,40.449331372262655
748534,42.15946509781013
748535,39.5275720782481
748536,46.62205766259848
748537,39.097646130078786
748538,35.17811690406303
748539,29.142493523250426
748540,27.413994818600337
748541,27.93119585488027
748542,26.444956683904216
748543,26.955965347123374
748544,21.9647722776987
748545,17.87181782215896
748546,17.297454257727168
748547,24.137963406181733
748548,32.61037072494538
748549,41.388296579956304
748550,49.31063726396504
748551,46.348509811172036
748552,53.47880784893763
748553,55.98304627915011
748554,48.78643702332009
748555,39.12914961865607
748556,32.20331969492486
748557,44.562655755939886
748558,55.950124604751906
748559,44.86009968380152
748560,36.08807974704122
748561,28.970463797632977
748562,29.27637103810638
748563,24.621096830485104
748564,21.596877464388083
748565,17.377501971510465
748566,14.002001577208372
748567,11.401601261766697
748568,9.321281009413358
748569,7.657024807530687
748570,12.325619846024548
748571,11.060495876819639
748572,19.048396701455708
748573,21.438717361164567
748574,19.150973888931652
748575,15.420779111145322
748576,12.436623288916257
748577,10.749298631133005
748578,10.099438904906403
748579,8.079551123925123
748580,6.463640899140098
748581,7.9709127193120795
748582,6.576730175449663
748583,5.36138414035973
748584,6.489107312287784
748585,5.391285849830227
748586,5.013028679864182
748587,4.110422943891345
748588,3.2883383551130763
748589,4.830670684090461
748590,4.564536547272369
748591,3.851629237817895
748592,3.181303390254316
748593,4.045042712203452
748594,6.036034169762762
748595,4.92882733581021
748596,4.043061868648168
748597,3.334449494918535
748598,7.267559595934827
748599,10.414047676747861
748600,8.431238141398289
748601,6.844990513118631
748602,5.575992410494905
748603,4.560793928395924
748604,3.748635142716739
748605,3.0989081141733914
748606,4.179126491338713
748607,3.4433011930709703
748608,2.854640954456776
748609,2.3837127635654207
748610,2.0069702108523364
748611,1.7055761686818691
748612,1.4644609349454953
748613,1.2715687479563962
748614,3.9172549983651166
748615,6.433803998692094
748616,5.847043198953675
748617,5.17763455916294
748618,4.242107647330352
748619,3.9936861178642813
