,atr
747180,0.0
747181,0.0
747182,0.0
747183,0.0
747184,13.1
747185,12.08
747186,11.264
747187,9.1112
747188,8.08896
747189,7.271168
747190,7.816934399999999
747191,9.75354752
747192,7.902838016
747193,6.4222704128000005
747194,5.23781633024
747195,4.290253064192
747196,3.5322024513536
747197,4.32576196108288
747198,6.160609568866304
747199,7.728487655093043
747200,6.182790124074435
747201,5.246232099259548
747202,4.296985679407639
747203,3.537588543526111
747204,3.030070834820889
747205,5.224056667856711
747206,4.879245334285369
747207,4.503396267428295
747208,6.002717013942636
747209,6.702173611154109
747210,5.861738888923287
747211,5.1893911111386295
747212,5.651512888910903
747213,4.521210311128723
747214,3.7169682489029783
747215,4.273574599122382
747216,3.5188596792979054
747217,3.2150877434383247
747218,2.6720701947506598
747219,2.237656155800528
747220,1.8901249246404224
747221,1.5120999397123378
747222,1.3096799517698703
747223,5.847743961415896
747224,12.178195169132717
747225,22.142556135306172
747226,17.814044908244938
747227,14.351235926595951
747228,11.58098874127676
747229,9.364790993021408
747230,7.6918327944171265
747231,6.253466235533701
747232,5.1027729884269615
747233,4.082218390741569
747234,4.765774712593255
747235,3.912619770074604
747236,3.2300958160596833
747237,2.6840766528477467
747238,2.1472613222781973
747239,1.7178090578225578
747240,1.4742472462580463
747241,1.179397797006437
747242,1.0435182376051497
747243,4.534814590084119
747244,4.527851672067295
747245,3.722281337653836
747246,3.077825070123069
747247,10.862260056098455
747248,20.189808044878767
747249,16.251846435903012
747250,13.10147714872241
747251,10.581181718977927
747252,8.464945375182342
747253,6.771956300145874
747254,5.517565040116699
747255,4.614052032093359
747256,14.991241625674686
747257,12.09299330053975
747258,9.9743946404318
747259,8.07951571234544
747260,6.563612569876352
747261,5.350890055901082
747262,9.580712044720865
747263,7.7645696357766925
747264,6.311655708621354
747265,5.149324566897083
747266,4.119459653517667
747267,3.395567722814133
747268,2.7164541782513068
747269,2.1731633426010455
747270,1.7385306740808364
747271,1.490824539264669
747272,1.2926596314117353
747273,1.1341277051293883
747274,1.0073021641035107
747275,0.9058417312828085
747276,0.8246733850262469
747277,0.7597387080209975
747278,0.7077909664167981
747279,0.7662327731334384
747280,0.6129862185067507
747281,0.5903889748054005
747282,2.6723111798443204
747283,2.2378489438754565
747284,1.9902791551003651
747285,1.6922233240802922
747286,1.4537786592642337
747287,1.163022927411387
747288,1.0304183419291095
747289,0.9243346735432876
747290,1.03946773883463
747291,1.031574191067704
747292,0.9252593528541633
747293,0.8402074822833306
747294,0.6721659858266645
747295,0.5377327886613317
747296,0.6301862309290653
747297,0.6041489847432523
747298,0.5833191877946018
747299,0.5666553502356815
747300,0.5533242801885452
747301,0.5426594241508361
747302,0.5341275393206689
747303,0.5273020314565351
747304,0.521841625165228
747305,0.5174733001321824
747306,2.013978640105746
747307,16.311182912084597
747308,16.948946329667677
747309,17.35915706373414
747310,13.987325650987312
747311,11.28986052078985
747312,9.03188841663188
747313,7.4255107333055035
747314,6.040408586644403
747315,4.932326869315522
747316,4.845861495452418
747317,6.476689196361934
747318,5.281351357089547
747319,4.325081085671638
747320,3.56006486853731
747321,2.948051894829848
747322,2.4584415158638784
747323,2.066753212691103
747324,1.7534025701528821
747325,1.5027220561223058
747326,1.3021776448978446
747327,1.1417421159182757
747328,1.1133936927346206
747329,0.9907149541876965
747330,0.8925719633501572
747331,0.8140575706801257
747332,0.7512460565441006
747333,0.7009968452352805
747334,0.6607974761882244
747335,0.6286379809505795
747336,0.6029103847604637
747337,0.582328307808371
747338,0.5658626462466968
747339,0.5526901169973575
747340,0.542152093597886
747341,0.5337216748783088
747342,0.5269773399026471
747343,0.5215818719221177
747344,0.5172654975376941
747345,0.5138123980301553
747346,0.41104991842412425
747347,0.3288399347392994
747348,0.8630719477914395
747349,1.5904575582331515
747350,1.3723660465865213
747351,1.097892837269217
747352,1.9783142698153735
747353,1.982651415852299
747354,1.6861211326818393
747355,1.3488969061454714
747356,1.1791175249163772
747357,1.0432940199331018
747358,0.8346352159464814
747359,0.7677081727571851
747360,0.714166538205748
747361,0.5713332305645984
747362,0.5570665844516787
747363,0.5456532675613429
747364,0.5365226140490743
747365,0.5292180912392594
747366,0.5233744729914076
747367,0.5186995783931261
747368,0.5149596627145009
747369,0.7119677301716008
747370,0.5695741841372806
747371,0.5556593473098245
747372,0.5445274778478596
747373,0.5356219822782877
747374,0.6284975858226302
747375,0.6027980686581041
747376,0.4822384549264833
747377,0.5857907639411867
747378,0.46863261115294935
747379,0.4749060889223594
747380,1.6799248711378876
747381,1.34393989691031
747382,2.4751519175282484
747383,2.280121534022599
747384,2.124097227218079
747385,1.7992777817744632
747386,1.4394222254195705
747387,1.1515377803356563
747388,0.9212302242685251
747389,0.7369841794148201
747390,0.689587343531856
747391,0.6516698748254848
747392,0.6213358998603878
747393,0.5970687198883102
747394,0.5776549759106482
747395,0.5621239807285185
747396,0.5496991845828149
747397,0.4397593476662519
747398,0.45180747813300154
747399,0.4614459825064012
747400,0.469156786005121
747401,0.3753254288040968
747402,0.40026034304327746
747403,0.42020827443462194
747404,1.7361666195476975
747405,1.388933295638158
747406,1.1111466365105263
747407,0.988917309208421
747408,0.8911338473667367
747409,0.8129070778933893
747410,0.7503256623147114
747411,0.6002605298517691
747412,0.5802084238814154
747413,0.5641667391051323
747414,0.5513333912841059
747415,0.5410667130272847
747416,0.43285337042182775
747417,0.44628269633746226
747418,0.9570261570699697
747419,3.5656209256559754
747420,3.1524967405247803
747421,2.5219973924198245
747422,2.0175979139358597
747423,1.6140783311486877
747424,1.9912626649189502
747425,1.69301013193516
747426,1.354408105548128
747427,1.0835264844385024
747428,0.866821187550802
747429,0.6934569500406416
747430,7.954765560032513
747431,6.46381244802601
747432,6.071049958420808
747433,4.856839966736646
747434,8.085471973389318
747435,6.568377578711454
747436,5.254702062969163
747437,4.203761650375331
747438,3.3630093203002644
747439,2.7904074562402115
747440,2.3323259649921693
747441,1.9658607719937353
747442,1.6726886175949882
747443,1.4381508940759906
747444,1.2505207152607924
747445,1.1004165722086339
747446,0.980333257766907
747447,0.8842666062135256
747448,0.9074132849708205
747449,0.8259306279766564
747450,0.7607445023813251
747451,0.7085956019050601
747452,0.5668764815240481
747453,0.5535011852192385
747454,0.5428009481753908
747455,0.5342407585403126
747456,0.5273926068322501
747457,0.5219140854658001
747458,0.5175312683726401
747459,0.514025014698112
747460,0.5112200117584896
747461,0.5089760094067917
747462,0.5071808075254334
747463,0.5057446460203467
747464,0.5045957168162774
747465,0.5036765734530219
747466,0.5029412587624175
747467,0.502353007009934
747468,0.4018824056079472
747469,0.42150592448635776
747470,0.4372047395890862
747471,0.3497637916712689
747472,0.2798110333370151
747473,0.3238488266696121
747474,0.3590790613356897
747475,0.38726324906855175
747476,0.3098105992548414
747477,0.3478484794038731
747478,0.37827878352309846
747479,0.40262302681847884
747480,0.42209842145478305
747481,0.43767873716382644
747482,0.45014298973106115
747483,0.4601143917848489
747484,0.46809151342787914
747485,0.4744732107423033
747486,0.4795785685938426
747487,0.4836628548750741
747488,0.48693028390005927
747489,0.48954422712004747
747490,0.49163538169603793
747491,0.49330830535683035
747492,0.4946466442854643
747493,0.4957173154283714
747494,0.49657385234269713
747495,0.4972590818741577
747496,0.49780726549932613
747497,0.3982458123994609
747498,0.4185966499195687
747499,0.4348773199356549
747500,0.44790185594852394
747501,0.35832148475881914
747502,0.3866571878070553
747503,0.30932575024564424
747504,0.34746060019651537
747505,0.2779684801572123
747506,0.5223747841257699
747507,0.4178998273006159
747508,0.3343198618404927
747509,0.36745588947239416
747510,0.39396471157791535
747511,0.31517176926233226
747512,0.2521374154098658
747513,0.20170993232789264
747514,0.2613679458623141
747515,2.3090943566898514
747516,1.9472754853518812
747517,1.557820388281505
747518,1.346256310625204
747519,1.0770050485001632
747520,0.9616040388001306
747521,0.8692832310401044
747522,0.6954265848320835
747523,0.6563412678656668
747524,0.6250730142925335
747525,0.5000584114340267
747526,0.5000467291472214
747527,0.4000373833177771
747528,0.3200299066542217
747529,0.35602392532337734
747530,0.3848191402587019
747531,0.3078553122069615
747532,0.2462842497655692
747533,0.29702739981245535
747534,0.33762191984996426
747535,0.27009753587997143
747536,0.21607802870397713
747537,0.17286242296318172
747538,0.23828993837054538
747539,0.29063195069643627
747540,0.23250556055714902
747541,0.18600444844571923
747542,0.2488035587565754
747543,0.19904284700526031
747544,0.25923427760420825
747545,0.3073874220833666
747546,0.3459099376666933
747547,0.27672795013335466
747548,0.32138236010668375
747549,0.257105888085347
747550,6.705684710468278
747551,5.464547768374622
747552,4.471638214699698
747553,8.37731057175976
747554,18.201848457407806
747555,25.661478765926244
747556,20.529183012740994
747557,16.523346410192794
747558,13.318677128154235
747559,10.754941702523388
747560,8.70395336201871
747561,6.963162689614968
747562,5.670530151691975
747563,4.6364241213535795
747564,3.7091392970828636
747565,2.967311437666291
747566,2.4738491501330326
747567,1.979079320106426
747568,1.783263456085141
747569,1.4266107648681128
747570,1.2412886118944901
747571,1.093030889515592
747572,0.9744247116124736
747573,0.8795397692899789
747574,0.8036318154319831
747575,0.7429054523455865
747576,0.6943243618764692
747577,0.6554594895011754
747578,0.6243675916009404
747579,0.5994940732807523
747580,4.179595258624602
747581,3.3436762068996813
747582,2.774940965519745
747583,4.219952772415796
747584,5.075962217932637
747585,8.86076977434611
747586,7.6886158194768885
747587,6.150892655581511
747588,5.020714124465209
747589,4.016571299572167
747590,4.113257039657734
747591,3.4906056317261873
747592,2.89248450538095
747593,11.41398760430476
747594,11.531190083443807
747595,9.324952066755046
747596,7.559961653404036
747597,7.947969322723229
747598,6.458375458178582
747599,11.166700366542866
747600,11.933360293234292
747601,9.646688234587433
747602,7.717350587669946
747603,6.173880470135957
747604,5.139104376108766
747605,4.211283500887013
747606,3.46902680070961
747607,2.875221440567688
747608,3.8001771524541503
747609,3.14014172196332
747610,2.612113377570656
747611,2.089690702056525
747612,1.7717525616452199
747613,1.517402049316176
747614,1.2139216394529408
747615,0.9711373115623527
747616,0.8769098492498821
747617,0.7015278793999057
747618,0.6612223035199245
747619,4.728977842815939
747620,4.083182274252751
747621,3.566545819402201
747622,6.953236655521761
747623,6.962589324417408
747624,5.6700714595339266
747625,4.536057167627141
747626,3.728845734101713
747627,3.0830765872813704
747628,2.5664612698250964
747629,2.153169015860077
747630,1.8225352126880616
747631,1.5580281701504493
747632,1.3464225361203594
747633,1.0771380288962875
747634,0.96171042311703
747635,0.8693683384936239
747636,0.7954946707948991
747637,0.6363957366359193
747638,0.5091165893087355
747639,0.4072932714469884
747640,0.3258346171575907
747641,0.26066769372607257
747642,0.20853415498085806
747643,0.26682732398468645
747644,0.31346185918774916
747645,0.3507694873501993
747646,0.3806155898801594
747647,0.30449247190412754
747648,0.343593977523302
747649,0.2748751820186416
747650,0.31990014561491326
747651,0.3559201164919306
747652,0.3847360931935445
747653,0.4077888745548356
747654,0.6262310996438685
747655,0.6009848797150947
747656,0.4807879037720758
747657,0.4846303230176606
747658,0.3877042584141285
747659,0.31016340673130277
747660,0.24813072538504222
747661,0.19850458030803378
747662,1.658803664246427
747663,1.4270429313971416
747664,1.2416343451177132
747665,1.0933074760941706
747666,0.9746459808753365
747667,11.479716784700269
747668,13.883773427760215
747669,12.707018742208172
747670,11.065614993766538
747671,8.95249199501323
747672,7.2619935960105835
747673,7.209594876808467
747674,6.167675901446773
747675,5.334140721157419
747676,4.667312576925935
747677,3.8338500615407485
747678,3.167080049232599
747679,2.733664039386079
747680,2.2869312315088632
747681,1.8295449852070906
747682,4.5636359881656725
747683,3.750908790532538
747684,4.100727032426031
747685,7.580581625940825
747686,6.16446530075266
747687,5.031572240602128
747688,4.125257792481703
747689,3.3002062339853624
747690,2.74016498718829
747691,2.192131989750632
747692,3.253705591800505
747693,2.702964473440404
747694,2.2623715787523233
747695,1.9098972630018587
747696,1.6279178104014869
747697,1.4023342483211896
747698,1.2218673986569517
747699,1.0774939189255615
747700,0.9619951351404492
747701,0.8695961081123593
747702,0.6956768864898875
747703,0.65654150919191
747704,0.625233207353528
747705,0.7001865658828225
747706,0.760149252706258
747707,0.7081194021650064
747708,20.266495521732004
747709,16.613196417385602
747710,22.39055713390848
747711,18.012445707126783
747712,16.609956565701427
747713,13.387965252561141
747714,10.710372202048912
747715,9.66829776163913
747716,8.734638209311303
747717,7.087710567449042
747718,5.770168453959234
747719,4.616134763167387
747720,3.7929078105339094
747721,3.1343262484271275
747722,2.507460998741702
747723,2.1059687989933615
747724,1.7847750391946893
747725,2.4278200313557514
747726,2.042256025084601
747727,8.33380482006768
747728,6.767043856054144
747729,5.513635084843315
747730,4.510908067874652
747731,3.6087264542997217
747732,3.1869811634397776
747733,2.649584930751822
747734,2.2196679446014578
747735,1.7757343556811662
747736,1.4205874845449329
747737,1.2364699876359464
747738,1.0891759901087572
747739,1.7713407920870057
747740,1.5170726336696045
747741,2.4136581069356837
747742,3.130926485548547
747743,2.6047411884388376
747744,2.1837929507510703
747745,1.8470343606008561
747746,1.4776274884806848
747747,1.282101990784548
747748,1.1256815926276382
747749,1.0005452741021106
747750,0.9004362192816885
747751,0.7203489754253508
747752,0.9762791803402806
747753,0.7810233442722245
747754,1.0248186754177797
747755,0.9198549403342238
747756,0.835883952267379
747757,0.7687071618139032
747758,0.7149657294511226
747759,0.771972583560898
747760,0.7175780668487184
747761,0.6740624534789748
747762,0.7392499627831798
747763,0.6913999702265439
747764,0.6531199761812351
747765,0.622495980944988
747766,0.5979967847559904
747767,0.5783974278047923
747768,0.46271794224383384
747769,0.4701743537950671
747770,0.4761394830360537
747771,0.48091158642884296
747772,0.48472926914307435
747773,0.48778341531445946
747774,0.49022673225156754
747775,0.49218138580125403
747776,0.49374510864100324
747777,0.49499608691280256
747778,0.495996869530242
747779,0.4967974956241936
747780,0.4974379964993549
747781,0.3979503971994839
747782,0.3183603177595871
747783,0.3546882542076697
747784,0.38375060336613576
747785,0.4070004826929086
747786,0.4256003861543268
747787,0.3404803089234615
747788,0.2723842471387692
747789,0.31790739771101534
747790,0.35432591816881226
747791,0.3834607345350498
747792,0.40676858762803986
747793,0.32541487010243186
747794,0.3603318960819455
747795,0.3882655168655564
747796,0.41061241349244515
747797,0.42848993079395614
747798,0.5427919446351649
747799,5.834233555708132
747800,9.967386844566505
747801,9.673909475653204
747802,7.739127580522563
747803,6.29130206441805
747804,5.0330416515344405
747805,4.026433321227552
747806,3.321146656982042
747807,2.7569173255856336
747808,2.3055338604685067
747809,1.9444270883748054
747810,1.6555416706998443
747811,1.4244333365598754
747812,1.1395466692479004
747813,1.0116373353983203
747814,0.9093098683186562
747815,0.827447894654925
747816,0.76195831572394
747817,0.709566652579152
747818,0.6676533220633216
747819,0.6341226576506573
747820,0.6072981261205259
747821,0.6858385008964207
747822,0.6486708007171366
747823,0.6189366405737092
747824,0.49514931245896737
747825,0.3961194499671739
747826,0.41689555997373906
747827,1.1335164479789914
747828,3.106813158383193
747829,4.685450526706555
747830,3.848360421365244
747831,3.1786883370921952
747832,2.6429506696737564
747833,2.2143605357390053
747834,1.8714884285912041
747835,1.5971907428729633
747836,1.2777525942983705
747837,1.0222020754386965
747838,0.8177616603509572
747839,0.7542093282807658
747840,0.7033674626246127
747841,0.6626939700996901
747842,0.530155176079752
747843,4.724124140863802
747844,3.8792993126910416
747845,3.103439450152833
747846,2.5827515601222664
747847,2.066201248097813
747848,1.7529609984782504
747849,1.6023687987826
747850,1.48189503902608
747851,1.385516031220864
747852,1.7084128249766912
747853,2.3667302599813533
747854,2.4933842079850828
747855,2.094707366388066
747856,1.775765893110453
747857,1.5206127144883623
747858,1.41649017159069
747859,1.2331921372725518
747860,1.0865537098180416
747861,0.9692429678544332
747862,0.8753943742835466
747863,0.8003154994268373
747864,0.7402523995414698
747865,0.5922019196331758
747866,0.47376153570654067
747867,2.1790092285652323
747868,2.343207382852186
747869,1.9745659062817489
747870,2.679652725025399
747871,2.9437221800203193
747872,2.4549777440162552
747873,2.063982195213004
747874,1.7511857561704034
747875,1.5009486049363228
747876,1.3007588839490583
747877,1.1406071071592465
747878,1.0124856857273972
747879,0.9099885485819177
747880,0.8279908388655342
747881,0.7623926710924274
747882,2.209914136873942
747883,1.8679313094991534
747884,1.4943450475993227
747885,1.295476038079458
747886,1.0363808304635664
747887,0.8291046643708532
747888,0.7632837314966825
747889,0.710626985197346
747890,0.6685015881578769
747891,0.6348012705263015
747892,0.6078410164210413
747893,0.486272813136833
747894,0.4890182505094664
747895,0.49121460040757314
747896,0.49297168032605854
747897,0.3943773442608468
747898,0.5155018754086774
747899,0.512401500326942
747900,0.5099212002615536
747901,0.4079369602092429
747902,0.4263495681673943
747903,0.44107965453391546
747904,0.7528637236271324
747905,0.6022909789017059
747906,0.6818327831213647
747907,0.7454662264970918
747908,0.6963729811976734
747909,0.6570983849581388
747910,0.625678707966511
747911,0.6005429663732088
747912,0.580434373098567
747913,0.5643474984788537
747914,0.5514779987830829
747915,0.44118239902646633
747916,0.3529459192211731
747917,0.28235673537693845
747918,0.3258853883015508
747919,0.36070831064124065
747920,0.48856664851299253
747921,0.5908533188103939
747922,0.5726826550483152
747923,0.5581461240386522
747924,0.5465168992309217
747925,0.4372135193847374
747926,0.34977081550778993
747927,0.27981665240623194
747928,0.22385332192498555
747929,0.17908265753998845
747930,0.14326612603199076
747931,0.2146129008255926
747932,0.27169032066047405
747933,0.31735225652837923
747934,0.5538818052227035
747935,0.5431054441781628
747936,1.4344843553425304
747937,1.9475874842740244
747938,1.6580699874192195
747939,1.4264559899353757
747940,1.1411647919483006
747941,1.0129318335586404
747942,0.9103454668469123
747943,0.7282763734775298
747944,0.5826210987820238
747945,0.5660968790256191
747946,5.252877503220495
747947,4.802302002576396
747948,3.9418416020611167
747949,3.253473281648893
747950,2.7027786253191146
747951,2.2622229002552916
747952,3.1097783202042333
747953,2.587822656163387
747954,2.0702581249307093
747955,1.6562064999445674
747956,1.324965199955654
747957,1.059972159964523
747958,0.8479777279716185
747959,0.6783821823772949
747960,0.6427057459018359
747961,0.5141645967214687
747962,0.511331677377175
747963,0.50906534190174
747964,0.507252273521392
747965,0.5058018188171136
747966,0.5046414550536908
747967,0.5037131640429526
747968,0.5029705312343621
747969,0.6023764249874897
747970,0.5819011399899917
747971,0.5655209119919934
747972,0.5524167295935947
747973,0.5419333836748758
747974,0.4335467069399006
747975,1.8468373655519206
747976,1.5774698924415365
747977,1.3619759139532293
747978,1.2895807311625833
747979,1.1316645849300666
747980,1.0053316679440534
747981,0.9042653343552427
747982,0.8234122674841942
747983,0.7587298139873553
747984,0.7069838511898843
747985,0.6655870809519074
747986,0.632469664761526
747987,0.7059757318092208
747988,0.6647805854473766
747989,0.6318244683579013
747990,0.6054595746863211
747991,0.4843676597490568
747992,0.38749412779924547
747993,0.30999530223939636
747994,0.3479962417915171
747995,0.3783969934332137
747996,0.40271759474657093
747997,0.4221740757972567
747998,0.33773926063780535
747999,0.7701914085102443
748000,0.6161531268081955
748001,0.5929225014465563
748002,0.5743380011572451
748003,0.559470400925796
748004,0.4475763207406368
748005,0.8580610565925095
748006,0.6864488452740076
748007,0.849159076219206
748008,0.7793272609753649
748009,0.6234618087802919
748010,0.49876944702423354
748011,0.39901555761938684
748012,0.41921244609550945
748013,0.43536995687640756
748014,0.34829596550112607
748015,0.3786367724009009
748016,0.5029094179207207
748017,0.5023275343365766
748018,4.701862027469262
748019,3.8614896219754096
748020,3.2891916975803275
748021,2.731353358064262
748022,2.2850826864514096
748023,1.9280661491611277
748024,1.6424529193289021
748025,1.3139623354631218
748026,1.1511698683704974
748027,1.1209358946963979
748028,1.2967487157571183
748029,1.0373989726056947
748030,0.9299191780845557
748031,11.543935342467645
748032,9.335148273974117
748033,12.068118619179293
748034,9.754494895343434
748035,7.903595916274748
748036,6.322876733019799
748037,5.058301386415839
748038,4.146641109132672
748039,3.4173128873061374
748040,2.73385030984491
748041,2.2870802478759282
748042,1.9296641983007425
748043,1.6437313586405942
748044,1.6149850869124756
748045,1.3919880695299804
748046,1.2135904556239843
748047,1.8708723644991874
748048,2.59669789159935
748049,2.07735831327948
748050,1.761886650623584
748051,1.4095093204988671
748052,1.2276074563990937
748053,1.182085965119275
748054,1.54566877209542
748055,1.336535017676336
748056,1.1692280141410687
748057,1.035382411312855
748058,0.928305929050284
748059,0.9426447432402272
748060,1.1541157945921818
748061,1.0232926356737455
748062,0.9186341085389964
748063,0.8349072868311971
748064,0.7679258294649577
748065,1.514340663571966
748066,1.3114725308575728
748067,1.1491780246860581
748068,1.0193424197488465
748069,0.9154739357990772
748070,0.8323791486392619
748071,0.7659033189114095
748072,0.9127226551291276
748073,0.8301781241033022
748074,0.7641424992826418
748075,1.0113139994261133
748076,0.9090511995408906
748077,0.7272409596327125
748078,0.78179276770617
748079,0.725434214164936
748080,0.6803473713319488
748081,0.744277897065559
748082,0.6954223176524472
748083,0.7563378541219578
748084,0.9050702832975663
748085,0.724056226638053
748086,0.5792449813104424
748087,0.46339598504835394
748088,0.37071678803868313
748089,0.2965734304309465
748090,0.3372587443447572
748091,0.36980699547580576
748092,0.3958455963806446
748093,0.3166764771045157
748094,0.35334118168361256
748095,0.38267294534689006
748096,0.406138356277512
748097,0.7249106850220096
748098,0.9799285480176078
748099,0.8839428384140863
748100,0.8071542707312691
748101,0.7457234165850153
748102,0.6965787332680122
748103,0.6572629866144097
748104,0.5258103892915278
748105,0.5206483114332222
748106,0.5165186491465777
748107,0.5132149193172622
748108,0.5105719354538097
748109,0.5084575483630478
748110,0.5067660386904382
748111,0.8054128309523506
748112,1.5443302647618804
748113,1.5354642118095043
748114,3.9283713694476035
748115,3.242697095558083
748116,2.5941576764464664
748117,2.075326141157173
748118,1.7602609129257385
748119,2.8082087303405907
748120,4.846566984272473
748121,6.977253587417978
748122,9.081802869934382
748123,8.765442295947505
748124,7.212353836758004
748125,7.7698830694064025
748126,9.515906455525123
748127,7.812725164420098
748128,6.650180131536078
748129,5.420144105228863
748130,4.43611528418309
748131,3.6488922273464723
748132,3.019113781877178
748133,3.6152910255017425
748134,3.092232820401394
748135,3.173786256321115
748136,3.3390290050568923
748137,2.771223204045514
748138,2.316978563236411
748139,1.9535828505891288
748140,1.662866280471303
748141,1.4302930243770424
748142,1.1442344195016338
748143,1.0153875356013071
748144,1.0123100284810458
748145,0.9098480227848367
748146,1.2278784182278693
748147,3.9823027345822952
748148,4.185842187665836
748149,4.048673750132669
748150,5.238939000106135
748151,5.991151200084908
748152,8.792920960067926
748153,11.134336768054341
748154,12.607469414443473
748155,10.385975531554779
748156,12.508780425243824
748157,10.107024340195059
748158,8.085619472156047
748159,10.568495577724837
748160,12.75479646217987
748161,12.403837169743896
748162,10.023069735795117
748163,8.218455788636094
748164,8.374764630908874
748165,8.6998117047271
748166,11.95984936378168
748167,11.867879491025345
748168,9.694303592820276
748169,7.855442874256221
748170,6.384354299404977
748171,5.2074834395239815
748172,4.265986751619185
748173,3.5127894012953482
748174,2.9102315210362786
748175,2.4281852168290228
748176,2.042548173463218
748177,1.7340385387705743
748178,5.78723083101646
748179,9.029784664813167
748180,7.823827731850534
748181,7.759062185480427
748182,6.307249748384342
748183,5.145799798707474
748184,4.116639838965979
748185,25.293311871172783
748186,20.634649496938227
748187,21.90771959755058
748188,22.726175678040466
748189,20.180940542432374
748190,21.3447524339459
748191,17.475801947156718
748192,19.580641557725375
748193,17.5645132461803
748194,15.45161059694424
748195,16.161288477555395
748196,15.329030782044317
748197,17.563224625635453
748198,14.050579700508361
748199,13.44046376040669
748200,14.552371008325352
748201,11.741896806660282
748202,9.393517445328225
748203,7.61481395626258
748204,6.191851165010064
748205,5.053480932008052
748206,4.3427847456064415
748207,3.9742277964851533
748208,3.5793822371881228
748209,3.063505789750498
748210,5.350804631800399
748211,4.280643705440319
748212,3.5245149643522553
748213,2.919611971481804
748214,2.4356895771854434
748215,2.0485516617483546
748216,1.6388413293986837
748217,4.011073063518947
748218,3.708858450815158
748219,3.0670867606521264
748220,2.453669408521701
748221,2.062935526817361
748222,12.450348421453889
748223,10.86027873716311
748224,12.088222989730488
748225,13.970578391784391
748226,14.476462713427514
748227,14.881170170742013
748228,12.00493613659361
748229,9.803948909274888
748230,7.943159127419911
748231,6.554527301935929
748232,5.443621841548743
748233,5.354897473238994
748234,7.483917978591196
748235,11.887134382872956
748236,14.609707506298367
748237,11.987766005038694
748238,10.790212804030954
748239,9.832170243224763
748240,7.86573619457981
748241,7.292588955663848
748242,5.934071164531078
748243,4.847256931624862
748244,7.57780554529989
748245,10.862244436239912
748246,8.88979554899193
748247,7.311836439193544
748248,6.0494691513548355
748249,7.539575321083868
748250,11.431660256867094
748251,9.345328205493676
748252,7.57626256439494
748253,6.1610100515159525
748254,5.828808041212762
748255,4.86304643297021
748256,4.690437146376167
748257,3.852349717100934
748258,3.1818797736807474
748259,2.545503818944598
748260,2.036403055155678
748261,1.7291224441245425
748262,1.483297955299634
748263,1.9866383642397072
748264,5.989310691391766
748265,12.091448553113413
748266,21.17315884249073
748267,32.93852707399258
748268,26.350821659194064
748269,31.280657327355254
748270,37.62452586188421
748271,47.59962068950737
748272,43.779696551605895
748273,35.123757241284714
748274,30.699005793027773
748275,26.25920463442222
748276,22.307363707537775
748277,17.94589096603022
748278,14.456712772824176
748279,11.565370218259341
748280,9.352296174607472
748281,7.581836939685978
748282,6.1654695517487825
748283,5.932375641399026
748284,8.24590051311922
748285,6.796720410495377
748286,5.537376328396301
748287,4.529901062717041
748288,3.723920850173633
748289,3.079136680138906
748290,2.763309344111125
748291,2.4106474752888998
748292,1.9285179802311199
748293,1.8428143841848956
748294,1.5742515073479164
748295,1.3594012058783331
748296,1.0875209647026665
748297,0.8700167717621332
748298,0.7960134174097065
748299,0.7368107339277652
748300,0.6894485871422121
748301,0.5515588697137697
748302,0.44124709577101573
748303,0.45299767661681256
748304,0.46239814129345
748305,0.46991851303476
748306,0.47593481042780805
748307,0.38074784834224645
748308,0.5045982786737971
748309,0.5036786229390378
748310,1.4029428983512302
748311,1.2223543186809842
748312,3.577883454944787
748313,3.0623067639558297
748314,2.449845411164664
748315,1.9598763289317311
748316,1.667901063145385
748317,1.434320850516308
748318,1.2474566804130465
748319,1.0979653443304371
748320,0.9783722754643497
748321,0.7826978203714797
748322,0.7261582562971838
748323,0.680926605037747
748324,0.8447412840301975
748325,0.775793027224158
748326,0.6206344217793264
748327,0.4965075374234611
748328,0.4972060299387689
748329,0.49776482395101507
748330,1.598211859160812
748331,1.4785694873286497
748332,1.2828555898629197
748333,1.3262844718903357
748334,1.1610275775122685
748335,1.0288220620098147
748336,0.8230576496078518
748337,0.7584461196862814
748338,0.9067568957490252
748339,0.8254055165992202
748340,0.8603244132793761
748341,0.788259530623501
748342,0.7306076244988008
748343,0.6844860995990406
748344,0.7475888796792325
748345,0.698071103743386
748346,2.458456882994709
748347,4.566765506395766
748348,3.753412405116613
748349,3.1027299240932904
748350,6.282183939274633
748351,5.825747151419707
748352,4.760597721135765
748353,4.608478176908612
748354,4.48678254152689
748355,3.789426033221512
748356,3.531540826577209
748357,2.9252326612617674
748358,2.540186129009414
748359,3.0321489032075313
748360,2.425719122566025
748361,2.04057529805282
748362,1.9324602384422558
748363,1.6459681907538048
748364,1.416774552603044
748365,1.2334196420824353
748366,1.0867357136659481
748367,0.9693885709327585
748368,3.6755108567462065
748369,5.840408685396965
748370,8.172326948317572
748371,9.237861558654057
748372,9.090289246923245
748373,9.572231397538596
748374,7.857785118030877
748375,6.4862280944247015
748376,5.288982475539761
748377,4.331185980431809
748378,3.4649487843454474
748379,7.771959027476358
748380,16.317567221981086
748381,16.25405377758487
748382,13.103243022067895
748383,14.382594417654314
748384,11.606075534123452
748385,9.284860427298762
748386,10.02788834183901
748387,10.122310673471208
748388,8.297848538776966
748389,8.538278831021573
748390,8.730623064817259
748391,7.184498451853807
748392,7.947598761483046
748393,6.558079009186438
748394,5.34646320734915
748395,4.37717056587932
748396,3.601736452703456
748397,3.0813891621627647
748398,3.3651113297302118
748399,3.5920890637841696
748400,4.273671251027336
748401,3.518937000821869
748402,2.9151496006574953
748403,2.432119680525996
748404,2.045695744420797
748405,1.7365565955366375
748406,2.88924527642931
748407,2.411396221143448
748408,2.4291169769147585
748409,3.043293581531807
748410,3.1346348652254457
748411,2.6077078921803567
748412,2.1861663137442853
748413,2.948933050995428
748414,3.6591464407963428
748415,4.827317152637074
748416,4.66185372210966
748417,3.8294829776877277
748418,3.163586382150182
748419,4.530869105720146
748420,4.224695284576116
748421,4.0797562276608925
748422,3.363804982128714
748423,5.191043985702971
748424,10.052835188562378
748425,10.142268150849903
748426,13.61381452067992
748427,11.391051616543937
748428,14.712841293235149
748429,11.97027303458812
748430,10.876218427670496
748431,9.500974742136396
748432,7.700779793709117
748433,9.160623834967293
748434,10.928499067973835
748435,9.542799254379068
748436,7.834239403503254
748437,6.467391522802603
748438,5.2739132182420825
748439,4.219130574593666
748440,3.575304459674933
748441,6.360243567739946
748442,5.088194854191957
748443,4.4705558833535655
748444,4.176444706682853
748445,3.341155765346282
748446,6.172924612277026
748447,7.838339689821621
748448,10.370671751857296
748449,10.996537401485837
748450,10.197229921188669
748451,8.257783936950934
748452,6.706227149560748
748453,5.464981719648598
748454,10.371985375718879
748455,11.397588300575103
748456,11.418070640460083
748457,15.934456512368067
748458,18.84756520989445
748459,15.47805216791556
748460,12.482441734332449
748461,10.08595338746596
748462,8.168762709972768
748463,6.635010167978214
748464,5.408008134382571
748465,4.326406507506057
748466,3.4611252060048456
748467,2.8689001648038763
748468,2.3951201318431012
748469,2.016096105474481
748470,1.7128768843795847
748471,1.4703015075036678
748472,1.2762412060029342
748473,1.1209929648023473
748474,0.9967943718418779
748475,0.8974354974735024
748476,14.417948397978801
748477,11.83435871838304
748478,9.567486974706432
748479,7.853989579765146
748480,7.383191663812116
748481,19.006553331049695
748482,23.405242664839754
748483,19.024194131871802
748484,22.71935530549744
748485,22.975484244397954
748486,19.180387395518363
748487,15.54430991641469
748488,12.535447933131753
748489,10.128358346505403
748490,8.202686677204323
748491,6.662149341763458
748492,5.429719473410766
748493,4.543775578728613
748494,3.8350204629828903
748495,5.868016370386313
748496,4.6944130963090505
748497,3.75553047704724
748498,3.1044243816377923
748499,5.083539505310234
748500,4.066831604248187
748501,3.35346528339855
748502,3.08277222671884
748503,4.666217781375072
748504,7.132974225100057
748505,7.106379380080045
748506,6.885103504064037
748507,5.6080828032512295
748508,4.5864662426009835
748509,18.869172994080788
748510,15.195338395264631
748511,16.456270716211705
748512,24.765016572969365
748513,26.312013258375494
748514,25.749610606700394
748515,21.899688485360315
748516,17.61975078828825
748517,15.7958006306306
748518,14.13664050450448
748519,12.009312403603584
748520,9.907449922882867
748521,8.125959938306293
748522,6.600767950645034
748523,5.380614360516027
748524,4.504491488412822
748525,10.203593190730256
748526,8.262874552584204
748527,6.710299642067364
748528,5.468239713653891
748529,9.274591770923113
748530,7.6196734167384905
748531,16.29573873339079
748532,21.936590986712634
748533,40.449272789370106
748534,42.15941823149608
748535,39.52753458519687
748536,46.62202766815749
748537,39.09762213452599
748538,35.17809770762079
748539,29.142478166096634
748540,27.41398253287731
748541,27.93118602630185
748542,26.444948821041482
748543,26.955959056833183
748544,21.964767245466547
748545,17.87181379637324
748546,17.29745103709859
748547,24.13796082967887
748548,32.6103686637431
748549,41.38829493099448
748550,49.310635944795585
748551,46.34850875583647
748552,53.47880700466917
748553,55.983045603735334
748554,48.786436482988265
748555,39.12914918639061
748556,32.20331934911249
748557,44.562655479289994
748558,55.95012438343199
748559,44.86009950674559
748560,36.08807960539647
748561,28.970463684317178
748562,29.276370947453746
748563,24.621096757962995
748564,21.596877406370396
748565,17.37750192509632
748566,14.002001540077055
748567,11.401601232061644
748568,9.321280985649315
748569,7.657024788519452
748570,12.325619830815562
748571,11.060495864652449
748572,19.04839669172196
748573,21.438717353377566
748574,19.150973882702054
748575,15.420779106161643
748576,12.436623284929315
748577,10.749298627943451
748578,10.09943890235476
748579,8.079551121883808
748580,6.463640897507046
748581,7.970912718005637
748582,6.57673017440451
748583,5.361384139523608
748584,6.489107311618886
748585,5.391285849295109
748586,5.013028679436087
748587,4.11042294354887
748588,3.288338354839096
748589,4.830670683871277
748590,4.564536547097022
748591,3.851629237677618
748592,3.1813033901420944
748593,4.045042712113675
748594,6.03603416969094
748595,4.928827335752752
748596,4.0430618686022015
748597,3.334449494881761
748598,7.267559595905409
748599,10.414047676724326
748600,8.431238141379461
748601,6.8449905131035695
748602,5.575992410482856
748603,4.560793928386285
748604,3.748635142709028
748605,3.098908114167222
748606,4.179126491333777
748607,3.443301193067022
748608,2.8546409544536173
748609,2.383712763562894
748610,2.006970210850315
748611,1.705576168680252
748612,1.4644609349442015
748613,1.2715687479553612
748614,3.917254998364289
748615,6.433803998691431
748616,5.847043198953145
748617,5.177634559162516
748618,4.2421076473300126
748619,3.99368611786401
