,atr
748476,0.0
748477,0.0
748478,0.0
748479,0.0
748480,0.0
748481,0.0
748482,0.0
748483,0.0
748484,0.0
748485,0.0
748486,0.0
748487,0.0
748488,0.0
748489,0.0
748490,0.0
748491,0.0
748492,0.0
748493,0.0
748494,0.0
748495,0.0
748496,0.0
748497,0.0
748498,0.0
748499,0.0
748500,0.0
748501,0.0
748502,0.0
748503,0.0
748504,0.0
748505,0.0
748506,0.0
748507,0.0
748508,0.0
748509,0.0
748510,0.0
748511,0.0
748512,0.0
748513,0.0
748514,0.0
748515,0.0
748516,0.0
748517,0.0
748518,0.0
748519,0.0
748520,0.0
748521,0.0
748522,0.0
748523,0.0
748524,0.0
748525,12.08
748526,11.8484
748527,11.621432
748528,11.399003360000002
748529,11.661023292800003
748530,11.447802826944002
748531,12.238846770405123
748532,12.884069834997021
748533,14.916388438297082
748534,15.59806066953114
748535,15.866099456140516
748536,17.048777467017704
748537,16.88780191767735
748538,16.940045879323804
748539,16.70124496173733
748540,16.777220062502582
748541,17.041675661252533
748542,17.110842148027483
748543,17.348625305066935
748544,17.041652798965597
748545,16.730819742986284
748546,16.69620334812656
748547,17.39227928116403
748548,18.37443369554075
748549,19.536945021629933
748550,20.76620612119733
748551,21.040881998773383
748552,22.260064358797912
748553,23.134863071621954
748554,23.072165810189514
748555,22.620722493985724
748556,22.258308044106013
748557,23.693141883223895
748558,25.249279045559415
748559,24.754293464648228
748560,24.279207595355263
748561,23.80362344344816
748562,23.9375509745792
748563,23.578799955087614
748564,23.29722395598586
748565,22.841279476866145
748566,22.394453887328822
748567,21.966564809582245
748568,21.5472335133906
748569,21.136288843122788
748570,21.333563066260332
748571,21.026891804935126
748572,21.626353968836426
748573,21.813826889459698
748574,21.577550351670503
748575,21.155999344637095
748576,20.742879357744354
748577,20.408021770589468
748578,20.149861335177675
748579,19.74686410847412
748580,19.351926826304638
748581,19.244888289778547
748582,18.879990523982976
748583,18.512390713503315
748584,18.36214289923325
748585,18.014900041248584
748586,17.724602040423612
748587,17.38010999961514
748588,17.032507799622838
748589,16.91185764363038
748590,16.643620490757773
748591,16.330748080942616
748592,16.014133119323766
748593,15.843850456937291
748594,15.806973447798546
748595,15.500833978842575
748596,15.200817299265722
748597,14.906800953280408
748598,15.068664934214802
748599,15.227291635530506
748600,14.932745802819895
748601,14.644090886763497
748602,14.361209069028227
748603,14.083984887647661
748604,13.812305189894708
748605,13.546059086096813
748606,13.445137904374876
748607,13.186235146287379
748608,12.932510443361632
748609,12.6838602344944
748610,12.440183029804512
748611,12.201379369208421
748612,11.967351781824252
748613,11.738004746187766
748614,11.793244651264011
748615,11.88737975823873
748616,11.719632163073955
748617,11.535239519812476
748618,11.314534729416227
748619,11.148244034827904
